Time (s),Commanded (deg),SPI (deg),Error (deg)
2.1457672119140625e-06,-7.615369908949908e-06,0.06276082992553711,-0.06276844529544606
0.23591232299804688,-7.615369908949908e-06,0.06260418891906738,-0.06261180428897634
0.4727015495300293,-7.615369908949908e-06,0.06270861625671387,-0.06271623162662282
0.7107400894165039,-7.615369908949908e-06,0.06260418891906738,-0.06261180428897634
0.9493584632873535,-7.615369908949908e-06,0.06276082992553711,-0.06276844529544606
1.1844255924224854,-7.615369908949908e-06,0.06265640258789062,-0.06266401795779958
1.4213738441467285,-7.615369908949908e-06,0.06265640258789062,-0.06266401795779958
1.6610150337219238,-7.615369908949908e-06,0.06260418891906738,-0.06261180428897634
1.8970835208892822,-7.615369908949908e-06,0.06265640258789062,-0.06266401795779958
2.1360526084899902,-7.615369908949908e-06,0.06260418891906738,-0.06261180428897634
2.3726487159729004,-7.615369908949908e-06,0.06276082992553711,-0.06276844529544606
2.6079719066619873,-7.615369908949908e-06,0.06265640258789062,-0.06266401795779958
2.8451316356658936,0.004364700878367704,0.06276082992553711,-0.058396129047169405
3.088007926940918,0.05015873908996582,0.07993912696838379,-0.02978038787841797
3.3311564922332764,0.15173885401557474,0.17956280708312988,-0.02782395306755514
3.575739622116089,0.242936653249404,0.27036237716674805,-0.027425723917344047
3.819450616836548,0.33457168410806093,0.36184072494506836,-0.02726904083700743
4.0722336769104,0.4269581542295568,0.4520137310028076,-0.02505557677325082
4.314262390136719,0.5165847469778622,0.5401504039764404,-0.023565656998578266
4.555405139923096,0.6045832493725944,0.6270861625671387,-0.022502913194544227
4.795607805252075,0.6910576680127312,0.7131342887878418,-0.022076620775110634
5.039575815200806,0.7793834209442139,0.8014276027679443,-0.02204418182373047
5.2823145389556885,0.8686659336090088,0.892331600189209,-0.023665666580200195
5.520428657531738,0.9531596828909481,0.9782752990722656,-0.025115616181317524
5.759092569351196,1.0388019645915312,1.065263271331787,-0.02646130674025593
5.999951362609863,1.1266811454997343,1.1532433032989502,-0.02656215779921589
6.2408294677734375,1.2118205603431254,1.239656925201416,-0.027836364858290663
6.483871221542358,1.2981689256780289,1.3257050514221191,-0.027536125744090256
6.72317910194397,1.3856406211853027,1.413632869720459,-0.02799224853515625
6.970224142074585,1.4734843758975757,1.5005686283111572,-0.027084252413581478
7.215882778167725,1.55957714249106,1.587399959564209,-0.02782281707314893
7.4598753452301025,1.6475086422527538,1.6760587692260742,-0.028550126973320378
7.7014806270599365,1.7307417532976936,1.7616891860961914,-0.030947432798497765
7.94982385635376,1.8162364398731905,1.8481028079986572,-0.031866368125466726
8.194305658340454,1.9018490805345423,1.9354040622711182,-0.033554981736575895
8.438064336776733,1.9838850322891683,2.0184760093688965,-0.034590977079728136
8.68228816986084,1.9974601812222426,2.032573699951172,-0.035113518728929316
8.922340393066406,1.9981748268884771,2.0335657596588135,-0.035390932770336336
9.16972804069519,1.998541400713079,2.0339834690093994,-0.03544206829632035
9.414721012115479,1.998772901647231,2.034296751022339,-0.035523849375107774
9.662826538085938,1.9989448259858524,2.0344533920288086,-0.03550856604295616
9.903112649917603,1.999039954998914,2.034557819366455,-0.03551786436754112
10.139801979064941,1.9991568151642294,2.0346100330352783,-0.035453217871048937
10.37734055519104,1.9992291611783646,2.034975528717041,-0.03574636753867644
10.612552642822266,1.9993037581443787,2.0349233150482178,-0.03561955690383911
10.850825071334839,1.999371944104924,2.0350277423858643,-0.03565579828094023
11.089399337768555,1.9994476086953108,2.0350277423858643,-0.03558013369055346
11.325732707977295,2.000791500596439,2.0361764430999756,-0.03538494250353663
11.563189268112183,2.0008854252450607,2.036489725112915,-0.035604299867854294
11.803012132644653,2.0008140048559975,2.0363330841064453,-0.03551907925044784
12.041064262390137,2.0010345560662888,2.0365419387817383,-0.03550738271544951
12.280498266220093,2.001106039566152,2.036698579788208,-0.035592540222055824
12.51958680152893,2.001172248054953,2.0368030071258545,-0.03563075907090152
12.758516550064087,2.0012428742997788,2.0368030071258545,-0.03556013282607573
12.998239278793335,1.9800635024028665,2.035863161087036,-0.055799658684169584
13.242651462554932,1.9166331641814287,1.9943010807037354,-0.07766791652230665
13.485430002212524,1.820758391829098,1.8979668617248535,-0.07720846989575558
13.727896928787231,1.7264535006354838,1.8036167621612549,-0.07716326152577113
13.970932483673096,1.6350792856777416,1.7103631496429443,-0.0752838639652027
14.218215227127075,1.5404440515181597,1.6154909133911133,-0.07504686187295362
14.464539766311646,1.4494424847995533,1.5250046253204346,-0.07556214052088128
14.70724892616272,1.3590726571924545,1.436502456665039,-0.07742979947258455
14.954195261001587,1.2682168764226578,1.3468515872955322,-0.07863471087287444
15.19626522064209,1.1795532703399658,1.2595503330230713,-0.07999706268310547
15.440053224563599,1.0902089090908276,1.1705782413482666,-0.08036933225743903
15.683010339736938,1.0011901995714974,1.0821805000305176,-0.08099030045902023
15.929189205169678,0.9125093432033763,0.9922163486480713,-0.079707005444695
16.17460536956787,0.8240513100343592,0.9028787612915039,-0.07882745125714474
16.420666217803955,0.735586124307969,0.8124969005584717,-0.07691077625050269
16.66826605796814,0.6463414781233844,0.7223238945007324,-0.07598241637734804
16.913630723953247,0.5583343085120706,0.6348137855529785,-0.07647947704090796
17.16006898880005,0.4694547793444465,0.54610276222229,-0.07664798287784352
17.403647899627686,0.38294081126942353,0.459636926651001,-0.07669611538157745
17.649479627609253,0.2952023253721349,0.372753381729126,-0.07755105635699105
17.893056392669678,0.20867708150078268,0.28581762313842773,-0.07714054163764505
18.138314247131348,0.1213386339299819,0.19799423217773438,-0.07665559824775248
18.382675886154175,0.03484620767481187,0.10975313186645508,-0.07490692419164321
18.630696296691895,-0.054990417817059684,0.019997835159301758,-0.07498825297636144
18.872087478637695,-0.1379996327792897,-0.06531929969787598,-0.07268033308141372
19.115431547164917,-0.2251872876111199,-0.15267276763916016,-0.07251451997195973
19.362260818481445,-0.31283119145561666,-0.24054837226867676,-0.0722828191869399
19.60587453842163,-0.39838183627409096,-0.32570886611938477,-0.0726729701547062
19.847546815872192,-0.4834245653713451,-0.40987730026245117,-0.07354726510889392
20.089541912078857,-0.5707931378308464,-0.49587321281433105,-0.07491992501651534
20.33024001121521,-0.656835205414716,-0.5813992023468018,-0.0754360030679142
20.572858095169067,-0.7438569209154915,-0.6670818328857422,-0.0767750880297493
20.811616897583008,-0.8294149707345402,-0.7520334720611572,-0.07738149867338295
21.049924850463867,-0.9125722857082591,-0.8333301544189453,-0.07924213128931379
21.288746118545532,-0.9991515524247113,-0.9112329483032227,-0.08791860412148866
21.527388095855713,-1.0802888169008142,-0.9855329990386963,-0.09475581786211795
21.767927408218384,-1.165372273501228,-1.0693881511688232,-0.09598412233240472
22.00691795349121,-1.2512692703920252,-1.153869867324829,-0.09739940306719608
22.246493577957153,-1.3288528077742632,-1.2304151058197021,-0.09843770195456103
22.48547911643982,-1.4114360669079948,-1.3152623176574707,-0.09617374925052413
22.723716259002686,-1.4975353549508488,-1.403712272644043,-0.0938230823068058
22.9637713432312,-1.5814568996429443,-1.4885072708129883,-0.09294962882995605
23.20318341255188,-1.66557837935055,-1.577688217163086,-0.08789016218746415
23.44252634048462,-1.7516059735242058,-1.6707329750061035,-0.08087299851810226
23.68258547782898,-1.8369489417356604,-1.7599661350250244,-0.07698280671063595
23.925564289093018,-1.924835527644438,-1.8490948677062988,-0.07574065993813917
24.168188333511353,-1.9999622877906351,-1.9266843795776367,-0.0732779082129984
24.41133427619934,-2.0030158407547893,-1.9316446781158447,-0.07137116263894461
24.649179935455322,-2.0042194899390724,-1.933211088180542,-0.0710084017585304
24.887975454330444,-2.0047772211187027,-1.933837652206421,-0.07093956891228181
25.128328800201416,-2.005083855460672,-1.9344642162322998,-0.07061963922837222
25.367403030395508,-2.005245755700504,-1.934725284576416,-0.07052047112408788
25.605252027511597,-2.0053487525266758,-1.9350907802581787,-0.07025797226849706
25.845617532730103,-2.005367601619047,-1.9352474212646484,-0.07012018035439871
26.085493087768555,-2.005383421393002,-1.935351848602295,-0.07003157279070704
26.32359743118286,-2.005383421393002,-1.9355084896087646,-0.06987493178423732
26.560348987579346,-2.005383421393002,-1.935560703277588,-0.06982271811541407
26.798828840255737,-2.005383421393002,-1.9356651306152344,-0.06971829077776759
27.036688804626465,-2.005383421393002,-1.9357173442840576,-0.06966607710894435
27.2754225730896,-2.005383421393002,-1.9357695579528809,-0.0696138634401211
27.516129970550537,-2.005383421393002,-1.9358739852905273,-0.06950943610247462
27.75940752029419,-2.005383421393002,-1.9358739852905273,-0.06950943610247462
27.997710704803467,-2.005383421393002,-1.9359784126281738,-0.06940500876482814
28.237375020980835,-2.0053487525266758,-1.9359784126281738,-0.06937033989850194
28.473599433898926,-2.0053487525266758,-1.9359784126281738,-0.06937033989850194
28.718994617462158,-1.9886474469128776,-1.9378581047058105,-0.0507893422070671
28.963341236114502,-1.935461030286901,-1.9128999710083008,-0.022561059278600304
29.20761013031006,-1.8335268216974594,-1.8153126239776611,-0.018214197719798264
29.453510522842407,-1.7386458761551802,-1.7192394733428955,-0.019406402812284673
29.69661259651184,-1.6414946247549618,-1.6140289306640625,-0.027465694090899273
29.94207191467285,-1.5489438982570873,-1.5141963958740234,-0.0347475023830639
30.18425965309143,-1.4579071577857523,-1.4204728603363037,-0.037434297449448595
30.428245306015015,-1.3688085079193115,-1.3274281024932861,-0.04138040542602539
30.672319173812866,-1.2822393389309155,-1.2349576950073242,-0.04728164392359124
30.9143488407135,-1.194574566448436,-1.1502671241760254,-0.04430744227241057
31.15616774559021,-1.1025734929477466,-1.060041904449463,-0.04253158849828376
31.40074586868286,-1.0289034983691048,-0.9868383407592773,-0.04206515760982743
31.643304109573364,-0.9349673635819379,-0.902043342590332,-0.03292402099160585
31.890936613082886,-0.8606410166796516,-0.8299362659454346,-0.03070475073421708
32.13682270050049,-0.7618332329918357,-0.7375180721282959,-0.024315160863539798
32.38331460952759,-0.662211909013636,-0.6384687423706055,-0.023743166643030555
32.62740874290466,-0.5753022782942828,-0.5525250434875488,-0.022777234806733992
32.871713399887085,-0.48915620411143584,-0.4679388999938965,-0.02121730411753936
33.11511492729187,-0.40086183828466077,-0.38089871406555176,-0.019963124219109007
33.35772466659546,-0.31440121987286734,-0.2951638698577881,-0.019237350015079258
33.60153913497925,-0.22861799071816838,-0.2092723846435547,-0.01934560607461369
33.844032764434814,-0.14046297353856704,-0.12217998504638672,-0.018282988492180324
34.09132528305054,-0.05093651659348432,-0.03080606460571289,-0.020130451987771428
34.33513355255127,0.03410604420830222,0.05565977096557617,-0.021553726757273954
34.57986497879028,0.12024673293618594,0.14327430725097656,-0.02302757431479062
34.826812505722046,0.20886489924262552,0.2331862449645996,-0.024321345721974086
35.07507514953613,0.2956533572253059,0.32111406326293945,-0.025460706037633563
35.32294988632202,0.3805885455187629,0.4052302837371826,-0.024641738218419695
35.56873559951782,0.4678204620585722,0.49127840995788574,-0.023457947899313547
35.813533544540405,0.5539476030013141,0.577796459197998,-0.023848856196683976
36.06207084655762,0.6409042723038617,0.6642622947692871,-0.0233580224654254
36.30853343009949,0.7290021531722125,0.7516679763793945,-0.022665823207182023
36.55742120742798,0.8173744398004869,0.8425197601318359,-0.025145320331349086
36.8029305934906,0.9039974633385154,0.930708646774292,-0.02671118343577661
37.05156087875366,0.9918541768017937,1.0198895931243896,-0.028035416322595985
37.29774498939514,1.080221498713774,1.1089661121368408,-0.02874461342306689
37.546151876449585,1.1677853780634262,1.1977815628051758,-0.029996184741749587
37.78864526748657,1.2543443651760326,1.2848217487335205,-0.030477383557487858
38.031493186950684,1.3403547090642594,1.3708698749542236,-0.03051516588996428
38.27527570724487,1.4280115295858944,1.4583799839019775,-0.03036845431608315
38.518067836761475,1.5129136898938347,1.5429661273956299,-0.030052437501795204
38.768985986709595,1.602118870791267,1.633086919784546,-0.030968048993278874
39.0129816532135,1.6878755513359518,1.7207536697387695,-0.032878118402817735
39.258750200271606,1.7720849864623125,1.806227445602417,-0.0341424591401045
39.50658440589905,1.862403063213124,1.8978102207183838,-0.03540715750525969
39.76878809928894,1.9476328316856832,1.9841716289520264,-0.036538797266343126
40.013511180877686,1.9977516531944275,2.034975528717041,-0.037223875522613525
40.25927209854126,1.9987032693975113,2.0359675884246826,-0.03726431902717131
40.50511860847473,1.999072641134262,2.0365941524505615,-0.03752151131629944
40.76966619491577,1.9992857715662788,2.0367507934570312,-0.037465021890752404
41.01387929916382,1.999411214800442,2.0368552207946777,-0.03744400599423581
41.2544379234314,2.001098766046412,2.0385260581970215,-0.03742729215060958
41.49377727508545,2.0014508874977337,2.0389437675476074,-0.03749288004987372
41.7596538066864,2.001380776657778,2.039048194885254,-0.0376674182274761
42.00018620491028,2.0016669052488663,2.039257049560547,-0.03759014431168062
42.23834443092346,2.001773946425494,2.039257049560547,-0.037483103135052875
42.47848916053772,2.001880645751953,2.0394136905670166,-0.03753304481506348
42.71876239776611,2.0019569572280433,2.039518117904663,-0.03756116067661974
42.957823514938354,2.0019850415341995,2.039518117904663,-0.03753307637046355
43.19431972503662,2.0020501298062943,2.0395703315734863,-0.03752020176719206
43.43880653381348,2.002056772218031,2.0397791862487793,-0.037722414030748386
43.68024206161499,2.0021195043535793,2.039674758911133,-0.037555254557553486
43.91616749763489,2.002120719236486,2.039726972579956,-0.03760625334347001
44.15443181991577,2.002120719236486,2.0397791862487793,-0.03765846701229325
44.39340829849243,2.002120719236486,2.039726972579956,-0.03760625334347001
44.63083219528198,2.002120871754254,2.0397791862487793,-0.0376583144945255
44.891066551208496,1.9707542649086784,2.042703151702881,-0.07194888679420242
45.131176233291626,1.891830514459049,1.9699695110321045,-0.07813899657305545
45.37207388877869,1.7947033713845646,1.8720166683197021,-0.07731329693513755
45.6130690574646,1.7031768911025102,1.7798073291778564,-0.0766304380753462
45.85409116744995,1.6103664426242603,1.6854572296142578,-0.0750907869899975
46.09522843360901,1.5203998509575338,1.5955452919006348,-0.07514544094310094
46.335984230041504,1.4308586260851692,1.5069386959075928,-0.07608006982242355
46.57639288902283,1.3440919202916763,1.420942783355713,-0.07685086306403655
46.82187581062317,1.2520105698529411,1.330613136291504,-0.07860256643856278
47.06729817390442,1.1618777022642248,1.2416410446166992,-0.0797633423524744
47.31088924407959,1.0725207188550163,1.152773380279541,-0.0802526614245247
47.55350375175476,0.9854420353384579,1.0648455619812012,-0.0794035266427433
47.79307150840759,0.8974893093109131,0.9761345386505127,-0.07864522933959961
48.03692698478699,0.8101564154905432,0.8872668743133545,-0.07711045882281131
48.283626317977905,0.7206302109886619,0.7962062358856201,-0.07557602489695825
48.52689290046692,0.6335162695716409,0.7074429988861084,-0.07392672931446753
48.77162170410156,0.5452819852267995,0.6202983856201172,-0.0750164003933177
49.01210165023804,0.45986160110024843,0.534459114074707,-0.0745975129744586
49.26156997680664,0.36942045828875375,0.44486045837402344,-0.07544000008526969
49.504841327667236,0.27892310479108023,0.35442638397216797,-0.07550327918108773
49.7623565196991,0.19244902274187872,0.2679605484008789,-0.07551152565900018
50.00466465950012,0.10626575526069193,0.1808159351348877,-0.07455017987419577
50.25054097175598,0.01813059694626752,0.09163498878479004,-0.07350439183852252
50.49165916442871,-0.002620402504416073,0.06829547882080078,-0.07091588132521685
50.7315878868103,-0.005141300313612994,0.06594586372375488,-0.07108716403736788
50.96911644935608,-0.0057599544525146484,0.06505823135375977,-0.07081818580627441
51.208860874176025,-0.006024346632115981,0.06453609466552734,-0.07056044129764333
51.44553303718567,-0.006148212096270393,0.06422281265258789,-0.07037102474885829
51.68573045730591,-0.00621940107906566,0.06406617164611816,-0.07028557272518382
51.92277002334595,-0.006218727897195255,0.06390953063964844,-0.0701282585368437
52.16176080703735,-0.006218727897195255,0.06380510330200195,-0.07002383119919721
52.40142822265625,-0.006218727897195255,0.06370067596435547,-0.06991940386155072
52.64059114456177,-0.006218727897195255,0.06359624862670898,-0.06981497652390424
52.8829448223114,-0.006218727897195255,0.06343960762023926,-0.06965833551743451
53.134613275527954,-0.006218727897195255,0.06354403495788574,-0.069762762855081
